myFilteredPos ; myLidarPos ; opponentPos ; opponentAngle ; opponentDistance ; DistanceFromCenter ; Angle balises recherchés ; debugPerimetre ; debugIsocele 
1.729504 0.202564 358.081818 ; 1.745135 0.187945 358.072845 ; 0.186391 0.753163 ; 287.718750 ; 1.638400 ; 1.104411 ; 258.531647 343.855621 140.115463 ; 8.580244 ; -0.017788 
1.728638 0.203910 358.084259 ; 1.743721 0.190972 358.264313 ; 0.185454 0.742282 ; 287.316650 ; 1.634400 ; 1.112485 ; 258.484619 343.867859 140.141098 ; 8.567588 ; -0.016977 
1.724030 0.211415 358.464142 ; 1.737228 0.197387 358.421204 ; 0.180565 0.737936 ; 287.300171 ; 1.630800 ; 1.119024 ; 258.589050 344.298584 140.673248 ; 8.536577 ; -0.017567 
1.713831 0.227992 358.957031 ; 1.714503 0.226353 359.005585 ; 0.201929 0.735056 ; 287.497559 ; 1.594667 ; 1.105466 ; 258.469727 344.905121 141.475906 ; 8.520003 ; -0.004066 
1.698486 0.248395 359.277649 ; 1.665570 0.295670 359.738373 ; 0.209890 0.724892 ; 287.027435 ; 1.563000 ; 1.106827 ; 258.011230 345.420837 141.829605 ; 8.526352 ; 0.044300 
1.676886 0.273252 359.627594 ; 1.659251 0.302964 359.547394 ; 0.202383 0.699225 ; 285.741211 ; 1.534800 ; 1.130235 ; 257.376892 346.068817 141.918503 ; 8.569712 ; 0.010865 
1.647533 0.307689 359.906067 ; 1.633300 0.328867 359.584839 ; 0.196051 0.703187 ; 285.147949 ; 1.504400 ; 1.131921 ; 256.265259 346.759094 141.945419 ; 8.575580 ; 0.003581 
1.633670 0.323390 0.028927 ; 1.604996 0.358266 0.029699 ; 0.209584 0.699047 ; 284.806274 ; 1.472800 ; 1.125292 ; 255.738541 347.083069 141.926117 ; 8.586197 ; -0.007431 
1.597871 0.361985 0.200289 ; 1.584019 0.379573 0.170592 ; 0.205865 0.699755 ; 283.839478 ; 1.432400 ; 1.127405 ; 254.263931 347.794708 141.656006 ; 8.561538 ; -0.011619 
1.572267 0.389363 0.241884 ; 1.549924 0.419349 359.958252 ; 0.203150 0.695839 ; 282.859497 ; 1.403000 ; 1.132098 ; 253.105698 348.234680 141.415512 ; 8.588979 ; -0.002632 
1.547233 0.415534 0.357224 ; 1.539757 0.433496 0.156582 ; 0.205910 0.698281 ; 282.260742 ; 1.370800 ; 1.128420 ; 252.044388 348.751099 141.253235 ; 8.580786 ; -0.021113 
1.514393 0.448141 0.358240 ; 1.508561 0.459580 0.090269 ; 0.199971 0.712792 ; 281.742188 ; 1.340800 ; 1.122382 ; 250.526138 349.299255 140.842697 ; 8.588774 ; -0.015765 
1.503744 0.458960 0.278377 ; 1.485781 0.494285 359.340759 ; 0.205427 0.704509 ; 280.988159 ; 1.321333 ; 1.124345 ; 249.936661 349.399231 140.653778 ; 8.556065 ; -0.008831 
1.480506 0.480848 0.004558 ; 1.471834 0.505085 359.161285 ; 0.201337 0.684845 ; 279.065552 ; 1.295333 ; 1.141201 ; 248.596252 349.530518 140.071381 ; 8.568126 ; -0.020524 
1.452419 0.506563 359.670502 ; 1.423124 0.530637 359.030548 ; 0.197269 0.709813 ; 278.868713 ; 1.271500 ; 1.126398 ; 246.973328 349.699585 139.362579 ; 8.609127 ; 0.019778 
1.443901 0.515595 359.454926 ; 1.433173 0.531019 358.581482 ; 0.203041 0.688152 ; 277.371826 ; 1.252800 ; 1.137647 ; 246.318558 349.634277 139.099152 ; 8.593927 ; -0.020050 
1.421731 0.533419 359.340088 ; 1.395913 0.567178 359.110016 ; 0.195350 0.733940 ; 278.626099 ; 1.242667 ; 1.110995 ; 245.246552 349.936859 138.605499 ; 8.609076 ; 0.020582 
1.406775 0.545423 359.338409 ; 1.398838 0.545789 358.787079 ; 0.175362 0.716210 ; 277.234497 ; 1.243200 ; 1.137697 ; 244.590439 350.220734 138.361755 ; 8.609174 ; -0.005727 
1.388309 0.559576 359.611176 ; 1.376515 0.568649 359.015198 ; 0.184350 0.730274 ; 277.680817 ; 1.216000 ; 1.121500 ; 244.068130 350.852753 138.320801 ; 8.658419 ; 0.011417 
1.381634 0.562572 359.621613 ; 1.390545 0.555251 359.180176 ; 0.179266 0.734987 ; 277.781982 ; 1.214667 ; 1.121984 ; 243.862274 351.001404 138.128281 ; 8.605221 ; -0.024526 
1.367559 0.570947 359.795563 ; 1.390545 0.555251 359.180176 ; 0.179424 0.735677 ; 277.689056 ; 1.199500 ; 1.121398 ; 243.503647 351.461395 137.974670 ; 8.605221 ; -0.024526 
1.367312 0.570467 359.495941 ; 1.365792 0.581402 359.320099 ; 0.182039 0.757889 ; 278.481445 ; 1.200000 ; 1.104441 ; 243.216537 351.168884 137.641968 ; 8.603285 ; -0.004985 
1.366623 0.569749 359.431427 ; 1.363053 0.582693 359.751709 ; 0.194308 0.753749 ; 278.351440 ; 1.186667 ; 1.098194 ; 243.165222 351.122101 137.512360 ; 8.611178 ; -0.004820 
1.364205 0.572863 359.198456 ; 1.357707 0.591604 359.624634 ; 0.190838 0.731185 ; 276.882935 ; 1.184000 ; 1.116163 ; 242.781479 350.933075 137.297745 ; 8.606837 ; -0.004128 
1.363011 0.574508 359.148346 ; 1.355968 0.581642 359.231995 ; 0.193936 0.729717 ; 276.710815 ; 1.179333 ; 1.114933 ; 242.653076 350.904358 137.261322 ; 8.616970 ; -0.017053 
1.360224 0.579114 359.036774 ; 1.355148 0.583837 358.643829 ; 0.198074 0.754656 ; 277.626343 ; 1.175333 ; 1.094816 ; 242.331879 350.840332 137.214569 ; 8.601947 ; -0.013460 
1.357309 0.581966 359.105652 ; 1.348581 0.598901 359.175385 ; 0.198811 0.754889 ; 277.595215 ; 1.171333 ; 1.094118 ; 242.249924 350.965485 137.266006 ; 8.628166 ; -0.002151 
1.355935 0.583166 359.120087 ; 1.345780 0.591468 358.967712 ; 0.199557 0.732655 ; 276.486053 ; 1.166000 ; 1.108840 ; 242.198181 351.006989 137.266068 ; 8.617323 ; -0.009677 
1.352328 0.587697 359.350006 ; 1.351775 0.586366 358.823181 ; 0.202213 0.748732 ; 277.320557 ; 1.161333 ; 1.095841 ; 242.206024 351.303619 137.517471 ; 8.602083 ; -0.024002 
1.349165 0.588433 359.511383 ; 1.351552 0.585649 359.475037 ; 0.211997 0.745762 ; 277.388306 ; 1.148000 ; 1.090791 ; 242.285126 351.533966 137.559952 ; 8.629619 ; -0.032693 
1.347688 0.588215 359.683868 ; 1.341437 0.601718 359.950684 ; 0.206489 0.772608 ; 278.862305 ; 1.156000 ; 1.076457 ; 242.438705 351.740479 137.653137 ; 8.643990 ; -0.021157 
1.344108 0.587537 0.431926 ; 1.346406 0.578130 0.318896 ; 0.221033 0.758409 ; 279.082947 ; 1.136000 ; 1.075521 ; 243.145996 352.571381 138.203384 ; 8.611746 ; -0.034296 
1.342426 0.587162 0.663056 ; 1.319413 0.600721 1.106414 ; 0.209156 0.750638 ; 278.871460 ; 1.145000 ; 1.089485 ; 243.359879 352.841614 138.339417 ; 8.631104 ; -0.000418 
1.338976 0.585376 0.898806 ; 1.321113 0.603779 0.884901 ; 0.210609 0.716852 ; 277.544861 ; 1.136000 ; 1.111962 ; 243.595779 353.160706 138.337097 ; 8.592567 ; -0.000831 
1.334940 0.587094 0.982126 ; 1.303339 0.588065 1.282423 ; 0.211053 0.722382 ; 277.846069 ; 1.132000 ; 1.107757 ; 243.545410 353.329865 138.306107 ; 8.616997 ; 0.009453 
1.329510 0.590687 0.893970 ; 1.313609 0.589907 0.199135 ; 0.205067 0.729676 ; 277.940369 ; 1.133000 ; 1.106941 ; 243.231567 353.353577 138.120331 ; 8.632387 ; -0.007650 
1.325860 0.590581 0.896509 ; 1.316078 0.587502 359.882843 ; 0.216103 0.741716 ; 278.651733 ; 1.120000 ; 1.090637 ; 243.170456 353.439026 137.950790 ; 8.607646 ; -0.014751 
1.322355 0.590672 0.436444 ; 1.313486 0.599718 359.567993 ; 0.200571 0.726690 ; 277.349854 ; 1.130000 ; 1.112248 ; 242.642242 353.057983 137.334579 ; 8.647759 ; -0.008814 
1.320948 0.590609 0.143395 ; 1.315690 0.616821 359.442719 ; 0.196769 0.744523 ; 277.939453 ; 1.134667 ; 1.102690 ; 242.325272 352.796967 136.974823 ; 8.599934 ; -0.001033 
1.320847 0.590624 0.038161 ; 1.313380 0.610741 359.267822 ; 0.204252 0.710396 ; 276.160583 ; 1.123000 ; 1.121022 ; 242.217621 352.694000 136.865631 ; 8.617711 ; -0.008380 
1.320822 0.590712 359.948578 ; 1.310946 0.604490 359.221741 ; 0.210634 0.728184 ; 277.007446 ; 1.118667 ; 1.103992 ; 242.124466 352.604706 136.778671 ; 8.595350 ; -0.004631 
1.318949 0.594382 359.559509 ; 1.316643 0.582151 359.449066 ; 0.211391 0.746828 ; 277.396545 ; 1.118000 ; 1.090492 ; 241.571136 352.247406 136.460602 ; 8.628116 ; -0.022049 
1.317901 0.595691 359.405396 ; 1.306749 0.591363 359.259491 ; 0.204270 0.737842 ; 276.679688 ; 1.122667 ; 1.101848 ; 241.351318 352.113251 136.314514 ; 8.610369 ; -0.005680 
1.317241 0.596856 359.305969 ; 1.314434 0.599977 359.463959 ; 0.201329 0.761549 ; 277.701416 ; 1.128000 ; 1.087744 ; 241.198502 352.025421 136.234482 ; 8.641521 ; -0.018304 
1.317090 0.598589 359.298248 ; 1.319684 0.615350 359.370422 ; 0.201483 0.743657 ; 276.707153 ; 1.125000 ; 1.099856 ; 241.127029 352.016083 136.293045 ; 8.628092 ; -0.014967 
1.316916 0.607135 359.316162 ; 1.312781 0.615368 359.237335 ; 0.198187 0.761534 ; 277.174072 ; 1.129333 ; 1.090062 ; 240.842148 352.013092 136.660599 ; 8.621016 ; -0.013112 
1.316945 0.613917 359.321777 ; 1.301769 0.619316 359.270996 ; 0.202604 0.726364 ; 275.083923 ; 1.120000 ; 1.111014 ; 240.611862 351.998169 136.947845 ; 8.646179 ; 0.003115 
1.317038 0.631561 359.368622 ; 1.327639 0.624667 359.553162 ; 0.201786 0.723072 ; 274.059448 ; 1.119000 ; 1.113895 ; 240.050308 351.990692 137.714264 ; 8.621778 ; -0.032629 
1.317088 0.641827 359.391998 ; 1.312195 0.635842 359.308441 ; 0.204479 0.714807 ; 273.144836 ; 1.115000 ; 1.117758 ; 239.722961 351.982178 138.147079 ; 8.604521 ; -0.016456 
1.317513 0.664110 359.459229 ; 1.312253 0.667202 359.540710 ; 0.207639 0.732842 ; 273.002930 ; 1.112000 ; 1.102890 ; 239.043625 351.971954 139.094955 ; 8.644708 ; -0.017459 
1.318079 0.687852 359.408356 ; 1.305657 0.684478 359.635864 ; 0.211713 0.725331 ; 271.348572 ; 1.107000 ; 1.105218 ; 238.212463 351.834290 139.954895 ; 8.686687 ; -0.014843 
1.318212 0.699977 359.428802 ; 1.322964 0.735888 359.349457 ; 0.212947 0.740313 ; 271.518860 ; 1.106000 ; 1.093881 ; 237.836411 351.813446 140.421021 ; 8.603620 ; -0.028990 
1.318507 0.724493 359.389893 ; 1.289815 0.740170 359.326447 ; 0.193553 0.734639 ; 269.906616 ; 1.125000 ; 1.111816 ; 237.006836 351.689178 141.259491 ; 8.652192 ; 0.011228 
1.318747 0.748641 359.398132 ; 1.307409 0.750442 359.115540 ; 0.194799 0.759371 ; 269.945068 ; 1.124000 ; 1.094021 ; 236.248871 351.612823 142.098251 ; 8.626361 ; -0.005317 
1.318888 0.760193 359.399597 ; 1.311748 0.769450 359.323578 ; 0.188378 0.741364 ; 268.445435 ; 1.130667 ; 1.110972 ; 235.889114 351.572601 142.487488 ; 8.655647 ; -0.017995 
1.318994 0.782472 359.431152 ; 1.321703 0.781291 359.534790 ; 0.192265 0.745575 ; 267.555542 ; 1.127333 ; 1.105257 ; 235.229141 351.526611 143.241043 ; 8.606788 ; -0.030520 
1.319007 0.793268 359.503052 ; 1.314392 0.783082 359.425110 ; 0.200544 0.749116 ; 267.242432 ; 1.119333 ; 1.096793 ; 234.969208 351.561371 143.652481 ; 8.636790 ; -0.026290 
1.319281 0.814136 359.559448 ; 1.308031 0.811358 359.206818 ; 0.214925 0.753852 ; 266.434937 ; 1.106000 ; 1.083087 ; 234.396942 351.538757 144.360504 ; 8.617376 ; -0.010714 
1.319638 0.824530 359.507141 ; 1.303360 0.836251 359.679810 ; 0.197769 0.755360 ; 265.979004 ; 1.124000 ; 1.094561 ; 234.039886 351.441071 144.634720 ; 8.650781 ; -0.002117 
1.320127 0.845388 359.464355 ; 1.309854 0.864460 359.474548 ; 0.178393 0.758968 ; 265.135803 ; 1.145000 ; 1.106421 ; 233.388077 351.311707 145.222870 ; 8.640600 ; -0.007922 
1.320331 0.855726 359.452637 ; 1.314203 0.868126 359.334351 ; 0.200229 0.731226 ; 263.110199 ; 1.127000 ; 1.109345 ; 233.077271 351.257477 145.515244 ; 8.616129 ; -0.019242 
1.320618 0.875925 359.394073 ; 1.313775 0.885425 359.100616 ; 0.197381 0.747986 ; 262.895966 ; 1.130500 ; 1.099874 ; 232.438812 351.117523 146.033112 ; 8.597193 ; -0.024159 
1.320895 0.894454 359.382355 ; 1.304376 0.893016 359.329254 ; 0.189778 0.749242 ; 262.066772 ; 1.140400 ; 1.104580 ; 231.903305 351.029510 146.536194 ; 8.634948 ; -0.018138 
1.321036 0.902546 359.383270 ; 1.298833 0.903644 359.114410 ; 0.195083 0.751796 ; 261.757507 ; 1.136000 ; 1.098954 ; 231.678268 350.996185 146.758469 ; 8.656308 ; -0.003795 
1.321271 0.916294 359.340363 ; 1.303579 0.910389 359.338287 ; 0.202314 0.738462 ; 260.310059 ; 1.133000 ; 1.102834 ; 231.254608 350.894684 147.085663 ; 8.659945 ; -0.004826 
1.321335 0.922088 359.325989 ; 1.301187 0.931044 359.452942 ; 0.199733 0.744978 ; 260.352631 ; 1.135500 ; 1.100221 ; 231.080215 350.856293 147.223679 ; 8.651639 ; -0.002218 
1.322761 0.929425 359.260651 ; 1.299144 0.934344 359.606537 ; 0.211863 0.745627 ; 259.866211 ; 1.126000 ; 1.090980 ; 230.842789 350.725311 147.404572 ; 8.662101 ; 0.003094 
1.323543 0.931737 359.302826 ; 1.307390 0.957504 359.868988 ; 0.205418 0.736749 ; 259.410553 ; 1.135000 ; 1.101777 ; 230.838242 350.738068 147.537476 ; 8.643776 ; -0.016105 
1.323759 0.932107 359.302185 ; 1.315482 0.940747 359.685181 ; 0.197624 0.748532 ; 260.043640 ; 1.141000 ; 1.099324 ; 230.832138 350.730316 147.555038 ; 8.654854 ; -0.018203 
1.323931 0.932533 359.295898 ; 1.318629 0.943830 359.606689 ; 0.200543 0.747652 ; 259.950256 ; 1.138500 ; 1.097798 ; 230.817871 350.717896 147.566574 ; 8.636010 ; -0.015707 
1.323966 0.932726 359.294647 ; 1.316777 0.940956 359.513947 ; 0.200787 0.746577 ; 259.884338 ; 1.138500 ; 1.098357 ; 230.812088 350.714966 147.571640 ; 8.633701 ; -0.014590 
1.324005 0.933011 359.293610 ; 1.317377 0.939735 359.582581 ; 0.199322 0.749846 ; 260.043640 ; 1.139500 ; 1.097186 ; 230.804016 350.711792 147.579407 ; 8.633746 ; -0.015552 
1.324013 0.933099 359.292023 ; 1.317346 0.939363 359.640808 ; 0.198679 0.750828 ; 260.091705 ; 1.140000 ; 1.096984 ; 230.800201 350.709656 147.580383 ; 8.638778 ; -0.015217 
1.324026 0.933227 359.291321 ; 1.310361 0.951700 359.628510 ; 0.200858 0.753227 ; 260.186462 ; 1.137500 ; 1.093754 ; 230.796265 350.708099 147.583435 ; 8.626575 ; -0.009878 
1.324036 0.933314 359.291382 ; 1.310561 0.950824 359.803436 ; 0.198312 0.756665 ; 260.373230 ; 1.139500 ; 1.093276 ; 230.794144 350.707550 147.586121 ; 8.629582 ; -0.019084 
1.324042 0.933363 359.294342 ; 1.310550 0.951741 359.938507 ; 0.206668 0.756190 ; 260.284424 ; 1.131333 ; 1.087487 ; 230.795883 350.710144 147.590576 ; 8.649596 ; -0.019151 
1.324048 0.933381 359.294342 ; 1.296311 0.946048 359.709503 ; 0.206019 0.746742 ; 259.817047 ; 1.133500 ; 1.094442 ; 230.795532 350.709930 147.591263 ; 8.667355 ; 0.014488 
1.324052 0.933397 359.294342 ; 1.316930 0.923918 358.952454 ; 0.200577 0.752154 ; 260.130157 ; 1.138000 ; 1.094692 ; 230.795151 350.709778 147.591812 ; 8.618700 ; -0.018201 
1.324058 0.933420 359.293793 ; 1.295551 0.932896 359.520935 ; 0.200358 0.760019 ; 260.521545 ; 1.137000 ; 1.089495 ; 230.794113 350.708984 147.592087 ; 8.651171 ; -0.003654 
1.324059 0.933434 359.293365 ; 1.305839 0.934845 359.314026 ; 0.202830 0.753979 ; 260.200195 ; 1.135500 ; 1.091800 ; 230.793320 350.708466 147.592087 ; 8.674284 ; -0.003302 
1.324057 0.933439 359.291534 ; 1.307376 0.931410 359.264526 ; 0.198769 0.767204 ; 260.888214 ; 1.137500 ; 1.085799 ; 230.791290 350.706665 147.590286 ; 8.626599 ; -0.017972 
1.324058 0.933441 359.290649 ; 1.307369 0.939580 359.591644 ; 0.200360 0.747369 ; 259.888458 ; 1.139000 ; 1.098125 ; 230.790405 350.705750 147.589493 ; 8.657099 ; -0.004060 
1.324059 0.933440 359.289886 ; 1.315764 0.958433 359.486908 ; 0.196652 0.748963 ; 259.996948 ; 1.142400 ; 1.099738 ; 230.789688 350.704956 147.588760 ; 8.639176 ; -0.013711 
1.324058 0.933431 359.290039 ; 1.309687 0.938877 359.259735 ; 0.201028 0.758969 ; 260.459747 ; 1.136500 ; 1.089717 ; 230.790039 350.705170 147.588623 ; 8.604682 ; -0.013375 
1.324054 0.933429 359.290985 ; 1.317332 0.929403 359.049866 ; 0.197788 0.757007 ; 260.388336 ; 1.140000 ; 1.093427 ; 230.790985 350.706238 147.589371 ; 8.628354 ; -0.016182 
1.324051 0.933426 359.290344 ; 1.297165 0.950751 359.694336 ; 0.202356 0.738538 ; 259.433899 ; 1.138500 ; 1.102751 ; 230.790329 350.705688 147.588547 ; 8.655670 ; 0.006460 
1.324051 0.933425 359.289551 ; 1.303468 0.953188 359.696777 ; 0.198914 0.749935 ; 260.027161 ; 1.140000 ; 1.097422 ; 230.789566 350.704895 147.587692 ; 8.617401 ; -0.000714 
1.324049 0.933425 359.289612 ; 1.306150 0.936862 359.291290 ; 0.204715 0.748539 ; 259.910431 ; 1.134500 ; 1.094153 ; 230.789581 350.705017 147.587692 ; 8.631966 ; 0.000323 
1.324047 0.933424 359.289062 ; 1.298277 0.928826 359.423706 ; 0.202891 0.763233 ; 260.657501 ; 1.134000 ; 1.085453 ; 230.789032 350.704529 147.587036 ; 8.632691 ; -0.005160 
1.324044 0.933421 359.288635 ; 1.316998 0.930726 359.123108 ; 0.202614 0.758437 ; 260.419922 ; 1.135000 ; 1.088917 ; 230.788620 350.704163 147.586426 ; 8.589549 ; -0.012592 
1.324041 0.933416 359.287445 ; 1.293395 0.949523 359.667267 ; 0.204019 0.737659 ; 259.373474 ; 1.137000 ; 1.102156 ; 230.787491 350.703094 147.584961 ; 8.654543 ; 0.008386 
1.324039 0.933405 359.286469 ; 1.307111 0.940326 359.733215 ; 0.199033 0.749113 ; 259.983215 ; 1.140000 ; 1.097897 ; 230.786758 350.702209 147.583618 ; 8.646409 ; -0.000779 
1.324035 0.933399 359.286194 ; 1.304081 0.967936 0.051895 ; 0.202287 0.744756 ; 259.740143 ; 1.137500 ; 1.098517 ; 230.786591 350.702057 147.583054 ; 8.645781 ; 0.004085 
1.324029 0.933393 359.285889 ; 1.304081 0.967936 0.051895 ; 0.198496 0.755529 ; 260.305939 ; 1.139500 ; 1.093913 ; 230.786331 350.701935 147.582336 ; 8.645781 ; 0.004085 
1.324027 0.933387 359.285339 ; 1.305213 0.933576 359.276459 ; 0.202627 0.755003 ; 260.246887 ; 1.135500 ; 1.091249 ; 230.785889 350.701447 147.581558 ; 8.663193 ; -0.001751 
1.324028 0.933385 359.285400 ; 1.301679 0.933066 359.561096 ; 0.198385 0.755575 ; 260.308960 ; 1.139600 ; 1.093963 ; 230.786011 350.701508 147.581604 ; 8.633743 ; -0.010679 
1.324026 0.933381 359.285492 ; 1.307310 0.940154 359.718567 ; 0.200449 0.749647 ; 259.998322 ; 1.138500 ; 1.096499 ; 230.786163 350.701660 147.581512 ; 8.643200 ; -0.001506 
1.324026 0.933379 359.285492 ; 1.315894 0.959737 359.660278 ; 0.205763 0.748146 ; 259.880219 ; 1.133500 ; 1.093662 ; 230.786224 350.701691 147.581436 ; 8.660516 ; -0.016322 
1.322385 0.934043 359.364716 ; 1.306029 0.947164 359.678375 ; 0.198854 0.759547 ; 260.536652 ; 1.137000 ; 1.090919 ; 230.811188 350.821136 147.610352 ; 8.640546 ; -0.011630 
1.320096 0.938912 358.942596 ; 1.346628 0.931988 357.103882 ; 0.194525 0.749881 ; 259.409180 ; 1.141333 ; 1.100667 ; 230.204895 350.439758 147.217712 ; 8.618563 ; -0.045139 
1.318206 0.939430 357.658417 ; 1.357902 0.943336 352.474762 ; 0.215029 0.658038 ; 253.348846 ; 1.138500 ; 1.151121 ; 228.864838 349.203033 145.869766 ; 8.544069 ; -0.071163 
1.322838 0.937552 352.911743 ; 1.338968 0.947391 346.855438 ; 0.218670 0.646042 ; 248.122559 ; 1.142000 ; 1.157463 ; 224.271637 344.342529 141.264389 ; 8.584464 ; -0.049125 
1.325829 0.937981 349.342987 ; 1.351426 0.952878 339.402252 ; 0.267214 0.575359 ; 240.434418 ; 1.119000 ; 1.179803 ; 220.756699 340.693848 137.828629 ; 8.606269 ; -0.057478 
1.326507 0.939526 341.444855 ; 1.359785 0.935821 331.943787 ; 0.255591 0.596542 ; 233.686066 ; 1.124500 ; 1.170633 ; 212.831055 332.771820 129.996933 ; 8.611760 ; -0.081929 
1.328000 0.940428 336.876648 ; 1.360494 0.947932 325.382446 ; 0.277658 0.547306 ; 226.356812 ; 1.121500 ; 1.195576 ; 208.270798 328.160950 125.512321 ; 8.602260 ; -0.074836 
1.331305 0.938933 327.689148 ; 1.350891 0.941652 318.130829 ; 0.252666 0.587325 ; 219.634552 ; 1.134500 ; 1.179612 ; 199.196365 318.893066 116.423058 ; 8.589780 ; -0.063258 
1.333620 0.940147 319.460846 ; 1.348636 0.953146 311.820465 ; 0.245060 0.612964 ; 212.731934 ; 1.136667 ; 1.164804 ; 190.985199 310.599335 108.320160 ; 8.617041 ; -0.061265 
1.333917 0.940024 315.047546 ; 1.348798 0.953890 305.595947 ; 0.265096 0.588961 ; 206.864319 ; 1.125000 ; 1.170503 ; 186.581711 306.178772 103.916054 ; 8.562195 ; -0.067055 
1.333781 0.941560 307.141846 ; 1.346458 0.935979 299.786865 ; 0.252351 0.627898 ; 200.967407 ; 1.126000 ; 1.148713 ; 178.631088 298.270325 96.042900 ; 8.627179 ; -0.062973 
1.333521 0.942124 303.390991 ; 1.343696 0.952589 295.609955 ; 0.266633 0.591583 ; 195.202332 ; 1.123000 ; 1.167497 ; 174.859131 294.523987 92.295319 ; 8.597826 ; -0.054171 
1.333458 0.939573 296.792328 ; 1.333124 0.958627 291.720734 ; 0.245525 0.653173 ; 192.043762 ; 1.125000 ; 1.134173 ; 168.328873 287.937378 85.630737 ; 8.614157 ; -0.047246 
1.333160 0.940181 293.870789 ; 1.330036 0.947031 287.873138 ; 0.244154 0.650018 ; 188.951111 ; 1.127000 ; 1.137442 ; 165.384216 285.021149 82.712021 ; 8.625697 ; -0.050559 
1.330891 0.941992 288.765656 ; 1.343000 0.949932 284.396423 ; 0.238144 0.654236 ; 184.012756 ; 1.130000 ; 1.138306 ; 160.180145 279.968018 77.558746 ; 8.610155 ; -0.047917 
1.329778 0.941503 286.335907 ; 1.321302 0.931462 281.065063 ; 0.241311 0.649324 ; 181.310120 ; 1.127000 ; 1.139850 ; 157.739471 277.569366 75.071190 ; 8.623667 ; -0.034815 
